5.026260560 3383.0
5.078781687 3406.0
5.131302815 3171.0
5.183823942 3331.0
5.236345069 3280.0
5.288866196 3208.0
5.341387324 3252.0
5.393908451 3205.0
5.446429578 3178.0
5.498950705 3007.0
5.551471833 3149.0
5.603992960 3088.0
5.656514087 3036.0
5.709035214 3104.0
5.761556342 3008.0
5.814077469 3020.0
5.866598596 2972.0
5.919119723 3041.0
5.971640851 3008.0
6.024161978 3111.0
6.076683105 3057.0
6.129204232 3015.0
6.181725360 2986.0
6.234246487 3035.0
6.286767614 3065.0
6.339288741 3041.0
6.391809869 2961.0
6.444330996 3029.0
6.496852123 2887.0
6.549373251 3017.0
6.601894378 3086.0
6.654415505 2967.0
6.706936632 2968.0
6.759457760 2907.0
6.811978887 3067.0
6.864500014 2977.0
6.917021141 3015.0
6.969542269 2998.0
7.022063396 3015.0
7.074584523 3055.0
7.127105650 2977.0
7.179626778 2989.0
7.232147905 3010.0
7.284669032 3033.0
7.337190159 2912.0
7.389711287 2950.0
7.442232414 2972.0
7.494753541 3012.0
7.547274668 2948.0
7.599795796 3026.0
7.652316923 2985.0
7.704838050 3063.0
7.757359178 2986.0
7.809880305 3077.0
7.862401432 2995.0
7.914922559 2947.0
7.967443687 3008.0
8.019964814 2945.0
8.072485941 3043.0
8.125007068 3005.0
8.177528196 3013.0
8.230049323 2979.0
8.282570450 3040.0
8.335091577 3011.0
8.387612705 2918.0
8.440133832 2967.0
8.492654959 2999.0
8.545176086 2853.0
8.597697214 3006.0
8.650218341 2867.0
8.702739468 2955.0
8.755260595 2980.0
8.807781723 2970.0
8.860302850 2882.0
8.912823977 2823.0
8.965345104 2860.0
9.017866232 2875.0
9.070387359 2964.0
9.122908486 2867.0
9.175429614 2831.0
9.227950741 2867.0
9.280471868 2876.0
9.332992995 2898.0
9.385514123 2963.0
9.438035250 2891.0
9.490556377 2744.0
9.543077504 2989.0
9.595598632 3006.0
9.648119759 3002.0
9.700640886 2843.0
9.753162013 2806.0
9.805683141 2959.0
9.858204268 2786.0
9.910725395 2737.0
9.963246522 2808.0
10.015767650 2694.0
10.068288777 2864.0
10.120809904 2825.0
10.173331031 2774.0
10.225852159 2726.0
10.278373286 2854.0
10.330894413 2880.0
10.383415541 2748.0
10.435936668 2600.0
10.488457795 2854.0
10.540978922 2774.0
10.593500050 2722.0
10.646021177 2798.0
10.698542304 2755.0
10.751063431 2786.0
10.803584559 2753.0
10.856105686 2749.0
10.908626813 2703.0
10.961147940 2734.0
11.013669068 2859.0
11.066190195 2743.0
11.118711322 2674.0
11.171232449 2609.0
11.223753577 2799.0
11.276274704 2645.0
11.328795831 2805.0
11.381316958 2680.0
11.433838086 2604.0
11.486359213 2765.0
11.538880340 2753.0
11.591401467 2703.0
11.643922595 2732.0
11.696443722 2828.0
11.748964849 2684.0
11.801485977 2643.0
11.854007104 2680.0
11.906528231 2703.0
11.959049358 2734.0
12.011570486 2849.0
12.064091613 2651.0
12.116612740 2567.0
12.169133867 2582.0
12.221654995 2682.0
12.274176122 2662.0
12.326697249 2733.0
12.379218376 2675.0
12.431739504 2629.0
12.484260631 2604.0
12.536781758 2720.0
12.589302885 2549.0
12.641824013 2588.0
12.694345140 2573.0
12.746866267 2547.0
12.799387394 2667.0
12.851908522 2569.0
12.904429649 2546.0
12.956950776 2666.0
13.009471904 2632.0
13.061993031 2567.0
13.114514158 2494.0
13.167035285 2650.0
13.219556413 2533.0
13.272077540 2610.0
13.324598667 2577.0
13.377119794 2565.0
13.429640922 2537.0
13.482162049 2452.0
13.534683176 2516.0
13.587204303 2519.0
13.639725431 2592.0
13.692246558 2564.0
13.744767685 2498.0
13.797288812 2520.0
13.849809940 2641.0
13.902331067 2489.0
13.954852194 2531.0
14.007373321 2544.0
14.059894449 2431.0
14.112415576 2506.0
14.164936703 2487.0
14.217457830 2478.0
14.269978958 2518.0
14.322500085 2432.0
14.375021212 2616.0
14.427542340 2539.0
14.480063467 2494.0
14.532584594 2497.0
14.585105721 2519.0
14.637626849 2421.0
14.690147976 2435.0
14.742669103 2398.0
14.795190230 2534.0
14.847711358 2462.0
14.900232485 2511.0
14.952753612 2508.0
15.005274739 2378.0
15.057795867 2432.0
15.110316994 2439.0
15.162838121 2371.0
15.215359248 2464.0
15.267880376 2455.0
15.320401503 2484.0
15.372922630 2349.0
15.425443757 2355.0
15.477964885 2369.0
15.530486012 2382.0
15.583007139 2390.0
15.635528267 2364.0
15.688049394 2367.0
15.740570521 2273.0
15.793091648 2401.0
15.845612776 2466.0
15.898133903 2382.0
15.950655030 2260.0
16.003176157 2388.0
16.055697285 2352.0
16.108218412 2390.0
16.160739539 2290.0
16.213260666 2327.0
16.265781794 2372.0
16.318302921 2377.0
16.370824048 2331.0
16.423345175 2439.0
16.475866303 2181.0
16.528387430 2365.0
16.580908557 2451.0
16.633429684 2384.0
16.685950812 2299.0
16.738471939 2432.0
16.790993066 2279.0
16.843514193 2329.0
16.896035321 2365.0
16.948556448 2306.0
17.001077575 2357.0
17.053598703 2438.0
17.106119830 2340.0
17.158640957 2400.0
17.211162084 2305.0
17.263683212 2233.0
17.316204339 2247.0
17.368725466 2367.0
17.421246593 2232.0
17.473767721 2309.0
17.526288848 2235.0
17.578809975 2241.0
17.631331102 2321.0
17.683852230 2283.0
17.736373357 2370.0
17.788894484 2271.0
17.841415611 2275.0
17.893936739 2201.0
17.946457866 2281.0
17.998978993 2298.0
18.051500120 2334.0
18.104021248 2398.0
18.156542375 2311.0
18.209063502 2359.0
18.261584630 2284.0
18.314105757 2365.0
18.366626884 2222.0
18.419148011 2239.0
18.471669139 2242.0
18.524190266 2229.0
18.576711393 2312.0
18.629232520 2287.0
18.681753648 2250.0
18.734274775 2303.0
18.786795902 2158.0
18.839317029 2298.0
18.891838157 2264.0
18.944359284 2356.0
18.996880411 2257.0
19.049401538 2289.0
19.101922666 2242.0
19.154443793 2221.0
19.206964920 2243.0
19.259486047 2294.0
19.312007175 2312.0
19.364528302 2252.0
19.417049429 2272.0
19.469570556 2327.0
19.522091684 2260.0
19.574612811 2261.0
19.627133938 2258.0
19.679655066 2319.0
19.732176193 2142.0
19.784697320 2268.0
19.837218447 2229.0
19.889739575 2254.0
19.942260702 2316.0
19.994781829 2169.0
20.047302956 2302.0
20.099824084 2349.0
20.152345211 2261.0
20.204866338 2207.0
20.257387465 2261.0
20.309908593 2229.0
20.362429720 2338.0
20.414950847 2274.0
20.467471974 2299.0
20.519993102 2209.0
20.572514229 2335.0
20.625035356 2342.0
20.677556483 2244.0
20.730077611 2161.0
20.782598738 2272.0
20.835119865 2269.0
20.887640993 2238.0
20.940162120 2173.0
20.992683247 2225.0
21.045204374 2236.0
21.097725502 2221.0
21.150246629 2308.0
21.202767756 2189.0
21.255288883 2257.0
21.307810011 2344.0
21.360331138 2200.0
21.412852265 2388.0
21.465373392 2260.0
21.517894520 2272.0
21.570415647 2223.0
21.622936774 2267.0
21.675457901 2162.0
21.727979029 2283.0
21.780500156 2277.0
21.833021283 2296.0
21.885542410 2270.0
21.938063538 2207.0
21.990584665 2319.0
22.043105792 2172.0
22.095626919 2190.0
22.148148047 2193.0
22.200669174 2306.0
22.253190301 2259.0
22.305711429 2270.0
22.358232556 2314.0
22.410753683 2282.0
22.463274810 2231.0
22.515795938 2233.0
22.568317065 2273.0
22.620838192 2252.0
22.673359319 2290.0
22.725880447 2245.0
22.778401574 2249.0
22.830922701 2264.0
22.883443828 2216.0
22.935964956 2296.0
22.988486083 2245.0
23.041007210 2222.0
23.093528337 2287.0
23.146049465 2154.0
23.198570592 2231.0
23.251091719 2219.0
23.303612846 2216.0
23.356133974 2205.0
23.408655101 2209.0
23.461176228 2237.0
23.513697356 2128.0
23.566218483 2152.0
23.618739610 2197.0
23.671260737 2170.0
23.723781865 2208.0
23.776302992 2255.0
23.828824119 2228.0
23.881345246 2203.0
23.933866374 2176.0
23.986387501 2213.0
24.038908628 2167.0
24.091429755 2157.0
24.143950883 2119.0
24.196472010 2205.0
24.248993137 2112.0
24.301514264 2161.0
24.354035392 2128.0
24.406556519 2178.0
24.459077646 2127.0
24.511598773 2145.0
24.564119901 2203.0
24.616641028 2117.0
24.669162155 2219.0
24.721683282 2206.0
24.774204410 2229.0
24.826725537 2168.0
24.879246664 2200.0
24.931767792 2141.0
24.984288919 2085.0
25.036810046 2147.0
25.089331173 2079.0
25.141852301 2143.0
25.194373428 2101.0
25.246894555 2108.0
25.299415682 2098.0
25.351936810 2118.0
25.404457937 2207.0
25.456979064 2133.0
25.509500191 2038.0
25.562021319 2143.0
25.614542446 2171.0
25.667063573 2125.0
25.719584700 2136.0
25.772105828 2238.0
25.824626955 2079.0
25.877148082 2093.0
25.929669209 2042.0
25.982190337 2096.0
26.034711464 2062.0
26.087232591 2032.0
26.139753719 2060.0
26.192274846 2168.0
26.244795973 2079.0
26.297317100 2009.0
26.349838228 2059.0
26.402359355 2019.0
26.454880482 2002.0
26.507401609 2051.0
26.559922737 2110.0
26.612443864 2001.0
26.664964991 1982.0
26.717486118 2098.0
26.770007246 2038.0
26.822528373 2088.0
26.875049500 1996.0
26.927570627 2019.0
26.980091755 1978.0
27.032612882 1988.0
27.085134009 1957.0
27.137655136 1969.0
27.190176264 2026.0
27.242697391 2120.0
27.295218518 1958.0
27.347739645 2004.0
27.400260773 1990.0
27.452781900 1966.0
27.505303027 2066.0
27.557824155 2047.0
27.610345282 1946.0
27.662866409 1925.0
27.715387536 1971.0
27.767908664 1987.0
27.820429791 2009.0
27.872950918 1949.0
27.925472045 1845.0
27.977993173 1936.0
28.030514300 1937.0
28.083035427 1915.0
28.135556554 1943.0
28.188077682 1918.0
28.240598809 1892.0
28.293119936 1861.0
28.345641063 1882.0
28.398162191 1924.0
28.450683318 1952.0
28.503204445 1874.0
28.555725572 1905.0
28.608246700 1933.0
28.660767827 1962.0
28.713288954 1872.0
28.765810082 1954.0
28.818331209 1854.0
28.870852336 1831.0
28.923373463 1865.0
28.975894591 1868.0
29.028415718 1834.0
29.080936845 1855.0
29.133457972 1740.0
29.185979100 1913.0
29.238500227 1869.0
29.291021354 1785.0
29.343542481 1779.0
29.396063609 1856.0
29.448584736 1799.0
29.501105863 1849.0
29.553626990 1692.0
29.606148118 1820.0
29.658669245 1860.0
29.711190372 1853.0
29.763711499 1772.0
29.816232627 1812.0
29.868753754 1783.0
29.921274881 1880.0
29.973796008 1704.0
30.026317136 1762.0
30.078838263 1704.0
30.131359390 1797.0
30.183880518 1712.0
30.236401645 1745.0
30.288922772 1798.0
30.341443899 1772.0
30.393965027 1761.0
30.446486154 1708.0
30.499007281 1698.0
30.551528408 1704.0
30.604049536 1749.0
30.656570663 1747.0
30.709091790 1816.0
30.761612917 1760.0
30.814134045 1806.0
30.866655172 1764.0
30.919176299 1743.0
30.971697426 1807.0
31.024218554 1721.0
31.076739681 1818.0
31.129260808 1830.0
31.181781935 1800.0
31.234303063 1710.0
31.286824190 1658.0
31.339345317 1749.0
31.391866445 1831.0
31.444387572 1754.0
31.496908699 1820.0
31.549429826 1780.0
31.601950954 1857.0
31.654472081 1942.0
31.706993208 2218.0
31.759514335 2835.0
31.812035463 4184.0
31.864556590 7632.0
31.917077717 8058.0
31.969598844 6002.0
32.022119972 3340.0
32.074641099 2261.0
32.127162226 1959.0
32.179683353 1831.0
32.232204481 1820.0
32.284725608 1698.0
32.337246735 1707.0
32.389767862 1598.0
32.442288990 1741.0
32.494810117 1709.0
32.547331244 1708.0
32.599852371 1630.0
32.652373499 1596.0
32.704894626 1594.0
32.757415753 1738.0
32.809936881 1657.0
32.862458008 1551.0
32.914979135 1619.0
32.967500262 1532.0
33.020021390 1579.0
33.072542517 1540.0
33.125063644 1585.0
33.177584771 1507.0
33.230105899 1531.0
33.282627026 1607.0
33.335148153 1604.0
33.387669280 1520.0
33.440190408 1651.0
33.492711535 1603.0
33.545232662 1528.0
33.597753789 1489.0
33.650274917 1537.0
33.702796044 1628.0
33.755317171 1531.0
33.807838298 1590.0
33.860359426 1553.0
33.912880553 1586.0
33.965401680 1586.0
34.017922808 1603.0
34.070443935 1542.0
34.122965062 1539.0
34.175486189 1553.0
34.228007317 1536.0
34.280528444 1581.0
34.333049571 1705.0
34.385570698 1924.0
34.438091826 2244.0
34.490612953 3604.0
34.543134080 6077.0
34.595655207 4310.0
34.648176335 3688.0
34.700697462 2084.0
34.753218589 1602.0
34.805739716 1616.0
34.858260844 1550.0
34.910781971 1514.0
34.963303098 1528.0
35.015824225 1476.0
35.068345353 1412.0
35.120866480 1464.0
35.173387607 1453.0
35.225908734 1469.0
35.278429862 1495.0
35.330950989 1513.0
35.383472116 1468.0
35.435993244 1419.0
35.488514371 1439.0
35.541035498 1426.0
35.593556625 1452.0
35.646077753 1481.0
35.698598880 1483.0
35.751120007 1453.0
35.803641134 1451.0
35.856162262 1437.0
35.908683389 1445.0
35.961204516 1412.0
36.013725643 1541.0
36.066246771 1656.0
36.118767898 1697.0
36.171289025 1991.0
36.223810152 2448.0
36.276331280 3868.0
36.328852407 7725.0
36.381373534 11988.0
36.433894661 7715.0
36.486415789 6190.0
36.538936916 2773.0
36.591458043 1966.0
36.643979171 1650.0
36.696500298 1479.0
36.749021425 1388.0
36.801542552 1390.0
36.854063680 1454.0
36.906584807 1323.0
36.959105934 1339.0
37.011627061 1324.0
37.064148189 1341.0
37.116669316 1279.0
37.169190443 1320.0
37.221711570 1354.0
37.274232698 1311.0
37.326753825 1266.0
37.379274952 1345.0
37.431796079 1296.0
37.484317207 1316.0
37.536838334 1196.0
37.589359461 1272.0
37.641880588 1207.0
37.694401716 1286.0
37.746922843 1264.0
37.799443970 1254.0
37.851965097 1260.0
37.904486225 1251.0
37.957007352 1248.0
38.009528479 1281.0
38.062049607 1198.0
38.114570734 1165.0
38.167091861 1214.0
38.219612988 1237.0
38.272134116 1250.0
38.324655243 1212.0
38.377176370 1222.0
38.429697497 1188.0
38.482218625 1180.0
38.534739752 1186.0
38.587260879 1115.0
38.639782006 1175.0
38.692303134 1219.0
38.744824261 1220.0
38.797345388 1156.0
38.849866515 1164.0
38.902387643 1208.0
38.954908770 1250.0
39.007429897 1220.0
39.059951024 1216.0
39.112472152 1242.0
39.164993279 1234.0
39.217514406 1178.0
39.270035534 1185.0
39.322556661 1212.0
39.375077788 1157.0
39.427598915 1165.0
39.480120043 1187.0
39.532641170 1155.0
39.585162297 1155.0
39.637683424 1156.0
39.690204552 1151.0
39.742725679 1134.0
39.795246806 1142.0
39.847767933 1215.0
39.900289061 1138.0
39.952810188 1147.0
40.005331315 1149.0
40.057852442 1217.0
40.110373570 1159.0
40.162894697 1132.0
40.215415824 1101.0
40.267936951 1208.0
40.320458079 1155.0
40.372979206 1217.0
40.425500333 1093.0
40.478021460 1124.0
40.530542588 1199.0
40.583063715 1099.0
40.635584842 1111.0
40.688105970 1119.0
40.740627097 1133.0
40.793148224 1137.0
40.845669351 1128.0
40.898190479 1151.0
40.950711606 1133.0
41.003232733 1064.0
41.055753860 1160.0
41.108274988 1118.0
41.160796115 1141.0
41.213317242 1155.0
41.265838369 1142.0
41.318359497 1078.0
41.370880624 1120.0
41.423401751 1142.0
41.475922878 1058.0
41.528444006 1068.0
41.580965133 1156.0
41.633486260 1076.0
41.686007387 1127.0
41.738528515 1144.0
41.791049642 1117.0
41.843570769 1081.0
41.896091897 1075.0
41.948613024 1134.0
42.001134151 1181.0
42.053655278 1117.0
42.106176406 1089.0
42.158697533 1177.0
42.211218660 1123.0
42.263739787 1099.0
42.316260915 1029.0
42.368782042 1131.0
42.421303169 1062.0
42.473824296 1065.0
42.526345424 1083.0
42.578866551 1088.0
42.631387678 1031.0
42.683908805 1143.0
42.736429933 1122.0
42.788951060 1081.0
42.841472187 1002.0
42.893993314 1050.0
42.946514442 1092.0
42.999035569 1030.0
43.051556696 1053.0
43.104077823 1061.0
43.156598951 1057.0
43.209120078 1016.0
43.261641205 1044.0
43.314162333 1069.0
43.366683460 1023.0
43.419204587 1083.0
43.471725714 1106.0
43.524246842 1046.0
43.576767969 1109.0
43.629289096 1083.0
43.681810223 1032.0
43.734331351 1008.0
43.786852478 993.0
43.839373605 1061.0
43.891894732 1080.0
43.944415860 1094.0
43.996936987 1039.0
44.049458114 1041.0
44.101979241 956.0
44.154500369 1034.0
44.207021496 954.0
44.259542623 1009.0
44.312063750 963.0
44.364584878 951.0
44.417106005 1117.0
44.469627132 1065.0
44.522148260 1054.0
44.574669387 952.0
44.627190514 997.0
44.679711641 1031.0
44.732232769 975.0
44.784753896 955.0
44.837275023 983.0
44.889796150 1034.0
44.942317278 1056.0
44.994838405 1001.0
45.047359532 1068.0
45.099880659 998.0
45.152401787 1061.0
45.204922914 1060.0
45.257444041 962.0
45.309965168 1055.0
45.362486296 1017.0
45.415007423 1019.0
45.467528550 1027.0
45.520049677 955.0
45.572570805 1056.0
45.625091932 1000.0
45.677613059 993.0
45.730134186 974.0
45.782655314 1018.0
45.835176441 955.0
45.887697568 1066.0
45.940218696 1023.0
45.992739823 1015.0
46.045260950 1021.0
46.097782077 967.0
46.150303205 975.0
46.202824332 927.0
46.255345459 967.0
46.307866586 905.0
46.360387714 947.0
46.412908841 976.0
46.465429968 995.0
46.517951095 936.0
46.570472223 972.0
46.622993350 988.0
46.675514477 1010.0
46.728035604 994.0
46.780556732 956.0
46.833077859 935.0
46.885598986 990.0
46.938120113 946.0
46.990641241 1013.0
47.043162368 1030.0
47.095683495 954.0
47.148204623 930.0
47.200725750 912.0
47.253246877 979.0
47.305768004 930.0
47.358289132 991.0
47.410810259 1050.0
47.463331386 1107.0
47.515852513 1225.0
47.568373641 1418.0
47.620894768 2254.0
47.673415895 2609.0
47.725937022 1736.0
47.778458150 1912.0
47.830979277 1422.0
47.883500404 1097.0
47.936021531 940.0
47.988542659 973.0
48.041063786 926.0
48.093584913 975.0
48.146106040 991.0
48.198627168 988.0
48.251148295 916.0
48.303669422 937.0
48.356190549 957.0
48.408711677 951.0
48.461232804 986.0
48.513753931 948.0
48.566275059 933.0
48.618796186 897.0
48.671317313 890.0
48.723838440 918.0
48.776359568 877.0
48.828880695 868.0
48.881401822 875.0
48.933922949 954.0
48.986444077 958.0
49.038965204 871.0
49.091486331 916.0
49.144007458 875.0
49.196528586 885.0
49.249049713 917.0
49.301570840 886.0
49.354091967 994.0
49.406613095 907.0
49.459134222 902.0
49.511655349 888.0
49.564176476 915.0
49.616697604 897.0
49.669218731 899.0
49.721739858 939.0
49.774260986 916.0
49.826782113 897.0
49.879303240 932.0
49.931824367 924.0
49.984345495 927.0
50.036866622 912.0
50.089387749 815.0
50.141908876 921.0
50.194430004 828.0
50.246951131 937.0
50.299472258 950.0
50.351993385 852.0
50.404514513 836.0
50.457035640 868.0
50.509556767 874.0
50.562077894 842.0
50.614599022 926.0
50.667120149 802.0
50.719641276 834.0
50.772162403 994.0
50.824683531 905.0
50.877204658 905.0
50.929725785 839.0
50.982246912 882.0
51.034768040 910.0
51.087289167 857.0
51.139810294 897.0
51.192331422 902.0
51.244852549 877.0
51.297373676 843.0
51.349894803 879.0
51.402415931 896.0
51.454937058 834.0
51.507458185 859.0
51.559979312 847.0
51.612500440 855.0
51.665021567 860.0
51.717542694 907.0
51.770063821 851.0
51.822584949 862.0
51.875106076 899.0
51.927627203 848.0
51.980148330 862.0
52.032669458 857.0
52.085190585 878.0
52.137711712 872.0
52.190232839 860.0
52.242753967 913.0
52.295275094 868.0
52.347796221 843.0
52.400317349 859.0
52.452838476 887.0
52.505359603 859.0
52.557880730 884.0
52.610401858 964.0
52.662922985 884.0
52.715444112 843.0
52.767965239 889.0
52.820486367 836.0
52.873007494 854.0
52.925528621 899.0
52.978049748 865.0
53.030570876 863.0
53.083092003 834.0
53.135613130 786.0
53.188134257 857.0
53.240655385 872.0
53.293176512 824.0
53.345697639 852.0
53.398218766 801.0
53.450739894 877.0
53.503261021 816.0
53.555782148 778.0
53.608303275 839.0
53.660824403 830.0
53.713345530 856.0
53.765866657 846.0
53.818387785 824.0
53.870908912 836.0
53.923430039 845.0
53.975951166 828.0
54.028472294 810.0
54.080993421 843.0
54.133514548 891.0
54.186035675 852.0
54.238556803 874.0
54.291077930 848.0
54.343599057 862.0
54.396120184 810.0
54.448641312 802.0
54.501162439 837.0
54.553683566 849.0
54.606204693 813.0
54.658725821 888.0
54.711246948 849.0
54.763768075 903.0
54.816289202 872.0
54.868810330 846.0
54.921331457 833.0
54.973852584 855.0
55.026373712 792.0
55.078894839 825.0
55.131415966 887.0
55.183937093 848.0
55.236458221 839.0
55.288979348 792.0
55.341500475 787.0
55.394021602 864.0
55.446542730 784.0
55.499063857 829.0
55.551584984 837.0
55.604106111 895.0
55.656627239 880.0
55.709148366 813.0
55.761669493 837.0
55.814190620 835.0
55.866711748 876.0
55.919232875 795.0
55.971754002 822.0
56.024275129 882.0
56.076796257 829.0
56.129317384 841.0
56.181838511 836.0
56.234359638 864.0
56.286880766 827.0
56.339401893 882.0
56.391923020 927.0
56.444444148 978.0
56.496965275 953.0
56.549486402 1086.0
56.602007529 1292.0
56.654528657 2151.0
56.707049784 3236.0
56.759570911 2037.0
56.812092038 1820.0
56.864613166 2147.0
56.917134293 1447.0
56.969655420 935.0
57.022176547 845.0
57.074697675 926.0
57.127218802 847.0
57.179739929 823.0
57.232261056 828.0
57.284782184 840.0
57.337303311 816.0
57.389824438 806.0
57.442345565 816.0
57.494866693 794.0
57.547387820 865.0
57.599908947 790.0
57.652430075 895.0
57.704951202 765.0
57.757472329 825.0
57.809993456 811.0
57.862514584 805.0
57.915035711 783.0
57.967556838 809.0
58.020077965 817.0
58.072599093 789.0
58.125120220 851.0
58.177641347 812.0
58.230162474 816.0
58.282683602 809.0
58.335204729 835.0
58.387725856 798.0
58.440246983 808.0
58.492768111 819.0
58.545289238 873.0
58.597810365 865.0
58.650331492 779.0
58.702852620 821.0
58.755373747 823.0
58.807894874 811.0
58.860416001 797.0
58.912937129 821.0
58.965458256 832.0
59.017979383 824.0
59.070500511 817.0
59.123021638 793.0
59.175542765 792.0
59.228063892 785.0
59.280585020 757.0
59.333106147 801.0
59.385627274 836.0
59.438148401 803.0
59.490669529 803.0
59.543190656 855.0
59.595711783 778.0
59.648232910 822.0
59.700754038 818.0
59.753275165 805.0
59.805796292 790.0
59.858317419 802.0
59.910838547 784.0
59.963359674 738.0
60.015880801 831.0
60.068401928 839.0
60.120923056 767.0
60.173444183 784.0
60.225965310 792.0
60.278486438 820.0
60.331007565 779.0
60.383528692 741.0
60.436049819 801.0
60.488570947 820.0
60.541092074 786.0
60.593613201 777.0
60.646134328 822.0
60.698655456 841.0
60.751176583 813.0
60.803697710 772.0
60.856218837 803.0
60.908739965 788.0
60.961261092 753.0
61.013782219 776.0
61.066303346 788.0
61.118824474 789.0
61.171345601 799.0
61.223866728 774.0
61.276387855 826.0
61.328908983 800.0
61.381430110 771.0
61.433951237 791.0
61.486472364 776.0
61.538993492 755.0
61.591514619 780.0
61.644035746 739.0
61.696556874 828.0
61.749078001 791.0
61.801599128 779.0
61.854120255 823.0
61.906641383 809.0
61.959162510 757.0
62.011683637 798.0
62.064204764 814.0
62.116725892 842.0
62.169247019 795.0
62.221768146 744.0
62.274289273 790.0
62.326810401 765.0
62.379331528 796.0
62.431852655 779.0
62.484373782 755.0
62.536894910 839.0
62.589416037 808.0
62.641937164 852.0
62.694458291 894.0
62.746979419 868.0
62.799500546 911.0
62.852021673 1063.0
62.904542801 1497.0
62.957063928 2544.0
63.009585055 1935.0
63.062106182 1311.0
63.114627310 1519.0
63.167148437 1528.0
63.219669564 1003.0
63.272190691 878.0
63.324711819 773.0
63.377232946 779.0
63.429754073 741.0
63.482275200 745.0
63.534796328 767.0
63.587317455 763.0
63.639838582 768.0
63.692359709 745.0
63.744880837 736.0
63.797401964 719.0
63.849923091 796.0
63.902444218 761.0
63.954965346 795.0
64.007486473 720.0
64.060007600 755.0
64.112528727 770.0
64.165049855 765.0
64.217570982 776.0
64.270092109 768.0
64.322613237 734.0
64.375134364 785.0
64.427655491 758.0
64.480176618 826.0
64.532697746 714.0
64.585218873 727.0
64.637740000 734.0
64.690261127 770.0
64.742782255 800.0
64.795303382 766.0
64.847824509 738.0
64.900345636 767.0
64.952866764 755.0
65.005387891 769.0
65.057909018 804.0
65.110430145 743.0
65.162951273 760.0
65.215472400 719.0
65.267993527 780.0
65.320514654 747.0
65.373035782 724.0
65.425556909 748.0
65.478078036 793.0
65.530599164 735.0
65.583120291 759.0
65.635641418 707.0
65.688162545 745.0
65.740683673 758.0
65.793204800 707.0
65.845725927 713.0
65.898247054 750.0
65.950768182 774.0
66.003289309 746.0
66.055810436 785.0
66.108331563 744.0
66.160852691 665.0
66.213373818 780.0
66.265894945 721.0
66.318416072 755.0
66.370937200 785.0
66.423458327 905.0
66.475979454 1031.0
66.528500581 912.0
66.581021709 813.0
66.633542836 812.0
66.686063963 876.0
66.738585090 738.0
66.791106218 746.0
66.843627345 761.0
66.896148472 706.0
66.948669600 748.0
67.001190727 694.0
67.053711854 733.0
67.106232981 752.0
67.158754109 748.0
67.211275236 711.0
67.263796363 753.0
67.316317490 743.0
67.368838618 749.0
67.421359745 706.0
67.473880872 757.0
67.526401999 683.0
67.578923127 745.0
67.631444254 730.0
67.683965381 757.0
67.736486508 775.0
67.789007636 732.0
67.841528763 769.0
67.894049890 804.0
67.946571017 939.0
67.999092145 1412.0
68.051613272 2344.0
68.104134399 1555.0
68.156655527 1030.0
68.209176654 1326.0
68.261697781 1468.0
68.314218908 993.0
68.366740036 842.0
68.419261163 767.0
68.471782290 715.0
68.524303417 684.0
68.576824545 741.0
68.629345672 737.0
68.681866799 683.0
68.734387926 707.0
68.786909054 705.0
68.839430181 715.0
68.891951308 722.0
68.944472435 731.0
68.996993563 754.0
69.049514690 749.0
69.102035817 891.0
69.154556944 1183.0
69.207078072 1340.0
69.259599199 978.0
69.312120326 882.0
69.364641453 1101.0
69.417162581 1020.0
69.469683708 776.0
69.522204835 768.0
69.574725963 786.0
69.627247090 685.0
69.679768217 719.0
69.732289344 701.0
69.784810472 677.0
69.837331599 653.0
69.889852726 685.0
69.942373853 697.0
69.994894981 682.0
70.047416108 665.0
70.099937235 690.0
70.152458362 671.0
70.204979490 721.0
70.257500617 729.0
70.310021744 615.0
70.362542871 686.0
70.415063999 736.0
70.467585126 660.0
70.520106253 702.0
70.572627380 689.0
70.625148508 681.0
70.677669635 700.0
70.730190762 635.0
70.782711890 673.0
70.835233017 674.0
70.887754144 648.0
70.940275271 695.0
70.992796399 651.0
71.045317526 706.0
71.097838653 699.0
71.150359780 616.0
71.202880908 678.0
71.255402035 701.0
71.307923162 663.0
71.360444289 718.0
71.412965417 711.0
71.465486544 677.0
71.518007671 651.0
71.570528798 606.0
71.623049926 640.0
71.675571053 666.0
71.728092180 703.0
71.780613307 684.0
71.833134435 675.0
71.885655562 639.0
71.938176689 652.0
71.990697816 642.0
72.043218944 650.0
72.095740071 674.0
72.148261198 673.0
72.200782326 671.0
72.253303453 673.0
72.305824580 690.0
72.358345707 618.0
72.410866835 641.0
72.463387962 564.0
72.515909089 646.0
72.568430216 636.0
72.620951344 732.0
72.673472471 762.0
72.725993598 754.0
72.778514725 658.0
72.831035853 665.0
72.883556980 711.0
72.936078107 654.0
72.988599234 618.0
73.041120362 642.0
73.093641489 676.0
73.146162616 647.0
73.198683743 630.0
73.251204871 691.0
73.303725998 639.0
73.356247125 682.0
73.408768253 661.0
73.461289380 664.0
73.513810507 646.0
73.566331634 600.0
73.618852762 615.0
73.671373889 653.0
73.723895016 629.0
73.776416143 593.0
73.828937271 614.0
73.881458398 626.0
73.933979525 644.0
73.986500652 589.0
74.039021780 653.0
74.091542907 611.0
74.144064034 650.0
74.196585161 615.0
74.249106289 590.0
74.301627416 627.0
74.354148543 642.0
74.406669670 605.0
74.459190798 646.0
74.511711925 621.0
74.564233052 631.0
74.616754179 638.0
74.669275307 612.0
74.721796434 587.0
74.774317561 598.0
74.826838689 653.0
74.879359816 619.0
74.931880943 621.0
74.984402070 639.0
75.036923198 561.0
75.089444325 648.0
75.141965452 615.0
75.194486579 639.0
75.247007707 599.0
75.299528834 608.0
75.352049961 606.0
75.404571088 597.0
75.457092216 635.0
75.509613343 608.0
75.562134470 592.0
75.614655597 643.0
75.667176725 615.0
75.719697852 644.0
75.772218979 612.0
75.824740106 626.0
75.877261234 611.0
75.929782361 608.0
75.982303488 632.0
76.034824616 603.0
76.087345743 597.0
76.139866870 645.0
76.192387997 610.0
76.244909125 571.0
76.297430252 562.0
76.349951379 619.0
76.402472506 635.0
76.454993634 585.0
76.507514761 578.0
76.560035888 591.0
76.612557015 592.0
76.665078143 603.0
76.717599270 636.0
76.770120397 600.0
76.822641524 643.0
76.875162652 610.0
76.927683779 666.0
76.980204906 648.0
77.032726033 766.0
77.085247161 734.0
77.137768288 694.0
77.190289415 613.0
77.242810542 688.0
77.295331670 735.0
77.347852797 680.0
77.400373924 639.0
77.452895052 609.0
77.505416179 640.0
77.557937306 594.0
77.610458433 583.0
77.662979561 581.0
77.715500688 576.0
77.768021815 567.0
77.820542942 583.0
77.873064070 613.0
77.925585197 581.0
77.978106324 628.0
78.030627451 575.0
78.083148579 531.0
78.135669706 613.0
78.188190833 578.0
78.240711960 578.0
78.293233088 599.0
78.345754215 627.0
78.398275342 587.0
78.450796469 592.0
78.503317597 586.0
78.555838724 567.0
78.608359851 549.0
78.660880979 613.0
78.713402106 627.0
78.765923233 602.0
78.818444360 633.0
78.870965488 585.0
78.923486615 575.0
78.976007742 542.0
79.028528869 529.0
79.081049997 561.0
79.133571124 573.0
79.186092251 564.0
79.238613378 598.0
79.291134506 604.0
79.343655633 572.0
79.396176760 558.0
79.448697887 587.0
79.501219015 639.0
79.553740142 561.0
79.606261269 582.0
79.658782396 570.0
79.711303524 594.0
79.763824651 604.0
79.816345778 603.0
79.868866905 596.0
79.921388033 578.0
79.973909160 571.0
