SampleIdent,7061,/
Title1,Configuration=Plataforma Reflexion-Transmision spinner, Owner=User-1, Creation date=2/3/2023 7:20:03 AM,/
Title2,Goniometer=Omega/2Theta; Minimum step size 2Theta:0.0001; Minimum step size Omega:0.0001,/
DiffrType,XPERT,/
DiffrNumber,1,/
Anode,Cu,/
LabdaAlpha1, 1.540598,/
LabdaAlpha2, 1.544426,/
RatioAlpha21, 0.50000,/
DivergenceSlit,Fixed, 1/2,/
ReceivingSlit,UNDEFINED,/
MonochromatorUsed,NO,/
GeneratorVoltage,  45,/
TubeCurrent,  40,/
FileDateTime,11-mar-2025 12:33,/
DataAngleRange,   5.02626,  79.97391,/
ScanStepSize, 0.05252112726,/
ScanType,CONTINUOUS,/
ScanStepTime, 43.605,/
RawScan
    3361,    3399,    3459,    3348,    3209,    3186,    3157,    3076
    3092,    3191,    3143,    3182,    3176,    3071,    3160,    2918
    3073,    3073,    3081,    3039,    3072,    3067,    3107,    3060
    3053,    3048,    3067,    3059,    3010,    3084,    3072,    3003
    3045,    3141,    3036,    3011,    3070,    3090,    3119,    3081
    3145,    3014,    3130,    3005,    3088,    3083,    3050,    3102
    3117,    3030,    3022,    3121,    3121,    3081,    3103,    2933
    3005,    3074,    3019,    3128,    3062,    3061,    3052,    3102
    3108,    3168,    3098,    3027,    3070,    3064,    2961,    3059
    3055,    3072,    3063,    3050,    3041,    2994,    2945,    3036
    2955,    2997,    3003,    3026,    2792,    2953,    3005,    3064
    3034,    2982,    2999,    2938,    2987,    2907,    2949,    2961
    2945,    3039,    2912,    2882,    2900,    2906,    2960,    2917
    3015,    2892,    2830,    2782,    2864,    2814,    2950,    2793
    2863,    2920,    2837,    2810,    2848,    2784,    2789,    2825
    2730,    2851,    2762,    2844,    2796,    2876,    2846,    2818
    2685,    2792,    2884,    2779,    2752,    2731,    2861,    2769
    2806,    2791,    2697,    2834,    2711,    2762,    2785,    2714
    2712,    2729,    2682,    2749,    2701,    2721,    2761,    2723
    2768,    2707,    2630,    2710,    2630,    2643,    2622,    2678
    2621,    2545,    2733,    2600,    2530,    2658,    2671,    2629
    2597,    2597,    2622,    2527,    2569,    2601,    2551,    2551
    2618,    2581,    2508,    2563,    2610,    2604,    2495,    2547
    2490,    2552,    2527,    2461,    2593,    2553,    2500,    2462
    2523,    2574,    2537,    2528,    2422,    2584,    2424,    2473
    2450,    2505,    2516,    2502,    2427,    2435,    2448,    2379
    2502,    2507,    2460,    2387,    2449,    2560,    2463,    2435
    2313,    2424,    2487,    2515,    2369,    2414,    2435,    2478
    2392,    2420,    2381,    2375,    2447,    2387,    2434,    2487
    2419,    2392,    2430,    2384,    2449,    2387,    2350,    2416
    2301,    2360,    2473,    2365,    2350,    2366,    2353,    2254
    2332,    2264,    2248,    2306,    2382,    2390,    2313,    2336
    2297,    2388,    2324,    2367,    2309,    2394,    2254,    2221
    2335,    2297,    2304,    2238,    2426,    2294,    2222,    2291
    2338,    2326,    2453,    2363,    2270,    2344,    2378,    2207
    2376,    2339,    2332,    2266,    2339,    2326,    2284,    2304
    2360,    2311,    2372,    2222,    2373,    2362,    2293,    2368
    2362,    2232,    2305,    2371,    2338,    2328,    2240,    2254
    2286,    2401,    2413,    2374,    2417,    2324,    2382,    2330
    2327,    2360,    2297,    2279,    2263,    2272,    2266,    2295
    2289,    2378,    2327,    2232,    2298,    2351,    2268,    2350
    2342,    2284,    2252,    2293,    2317,    2279,    2312,    2213
    2316,    2222,    2330,    2337,    2249,    2226,    2298,    2245
    2275,    2180,    2380,    2329,    2370,    2235,    2280,    2263
    2247,    2254,    2225,    2216,    2281,    2300,    2294,    2338
    2305,    2233,    2314,    2165,    2209,    2295,    2179,    2226
    2181,    2213,    2274,    2234,    2198,    2158,    2240,    2249
    2236,    2187,    2248,    2218,    2107,    2172,    2136,    2219
    2194,    2093,    2226,    2137,    2093,    2206,    2179,    2065
    2114,    2159,    2175,    2156,    2190,    2042,    2076,    2098
    2119,    2170,    2122,    2060,    2066,    2062,    2072,    2017
    2094,    2105,    2102,    2023,    2117,    1997,    2026,    2015
    2032,    2075,    2069,    2123,    2063,    2020,    1982,    1964
    2031,    2020,    2006,    1996,    2083,    1875,    2039,    1986
    2050,    1953,    2029,    1930,    2008,    1956,    1978,    1954
    1861,    1949,    1925,    1952,    1957,    1873,    1981,    1913
    1946,    1887,    1933,    1865,    1914,    1914,    1831,    1949
    1929,    1893,    1903,    1956,    1897,    1794,    1880,    1875
    1934,    1841,    1935,    1906,    1788,    1904,    1891,    1852
    1841,    1818,    1837,    1776,    1853,    1883,    1776,    1789
    1774,    1775,    1789,    1824,    1816,    1759,    1778,    1804
    1779,    1842,    1769,    1743,    1745,    1864,    1773,    1826
    1765,    1794,    1719,    1757,    1814,    1749,    1882,    1689
    1754,    1824,    1897,    1864,    2127,    2509,    3608,    6489
    8664,    5931,    3864,    2353,    1938,    1870,    1769,    1713
    1674,    1675,    1721,    1645,    1709,    1606,    1772,    1598
    1641,    1654,    1664,    1612,    1575,    1552,    1554,    1533
    1573,    1555,    1629,    1553,    1456,    1601,    1539,    1613
    1623,    1542,    1515,    1564,    1537,    1508,    1577,    1531
    1525,    1540,    1498,    1534,    1593,    1603,    1734,    1791
    2117,    3137,    5601,    4392,    3767,    2139,    1700,    1559
    1583,    1480,    1533,    1451,    1399,    1398,    1456,    1473
    1360,    1475,    1420,    1388,    1365,    1475,    1406,    1389
    1428,    1422,    1446,    1418,    1447,    1432,    1506,    1671
    1692,    1911,    2283,    3367,    6270,   11360,    7836,    6621
    3094,    1957,    1663,    1484,    1460,    1455,    1452,    1343
    1359,    1385,    1360,    1296,    1319,    1306,    1290,    1305
    1326,    1275,    1276,    1285,    1241,    1264,    1294,    1263
    1211,    1225,    1209,    1191,    1195,    1243,    1265,    1202
    1300,    1171,    1278,    1205,    1196,    1173,    1183,    1249
    1146,    1183,    1186,    1198,    1162,    1187,    1183,    1179
    1206,    1162,    1229,    1198,    1144,    1179,    1116,    1176
    1188,    1127,    1169,    1162,    1138,    1230,    1169,    1139
    1157,    1148,    1153,    1126,    1125,    1168,    1145,    1113
    1078,    1125,    1118,    1097,    1143,    1097,    1098,    1222
    1118,    1072,    1127,    1106,    1140,    1095,    1104,    1118
    1122,    1136,    1067,    1098,    1107,    1097,    1117,    1168
    1082,    1050,    1084,    1110,    1102,    1114,    1102,    1095
    1090,    1100,    1146,    1117,    1063,    1139,    1133,    1035
    1037,    1008,    1078,    1072,    1061,    1106,    1080,    1070
    1040,    1029,    1076,    1059,    1012,    1116,    1073,    1030
    1023,    1125,    1052,    1066,    1024,    1070,     968,    1047
    1098,    1117,    1054,    1028,    1079,    1097,    1045,    1024
    1018,     997,    1000,     981,    1080,    1055,     981,     974
     996,    1055,    1038,     971,     913,    1037,     980,     912
     993,     980,    1035,     977,     962,     973,    1012,     982
    1002,    1023,     965,     997,     943,     974,     942,     962
     965,    1011,    1030,     988,    1058,     980,     961,     946
     952,    1003,    1011,    1041,     903,     963,     987,     921
    1046,     940,     975,     956,     991,    1000,     991,     929
     968,     950,     951,     947,     991,    1005,     969,     968
    1048,    1078,    1321,    1996,    2700,    1820,    1842,    1517
    1116,    1036,     976,     992,     960,     889,     928,     950
     942,     908,     974,     999,     937,     950,     925,     926
     970,     938,     955,     847,     924,     902,     895,     929
     926,     929,     893,     878,     912,     943,     906,     882
     894,     903,     889,     882,     894,     860,     862,     901
     884,     914,     916,     798,     885,     917,     909,     920
     895,     915,     837,     883,     873,     859,     877,     880
     886,     900,     894,     849,     886,     879,     851,     865
     864,     873,     881,     857,     858,     898,     874,     835
     891,     897,     849,     862,     881,     873,     847,     819
     829,     828,     850,     886,     913,     831,     847,     883
     903,     833,     931,     883,     905,     818,     900,     866
     852,     875,     839,     821,     864,     807,     884,     848
     823,     808,     833,     844,     788,     810,     859,     798
     883,     798,     827,     748,     799,     887,     838,     792
     826,     789,     867,     918,     828,     866,     850,     814
     878,     839,     823,     804,     850,     789,     823,     861
     787,     847,     797,     828,     819,     881,     862,     793
     824,     842,     857,     805,     862,     773,     822,     819
     854,     835,     796,     817,     844,     820,     853,     842
     899,     813,     863,     869,     896,     994,    1159,    1827
    3387,    2223,    1710,    2179,    1573,     994,     940,     885
     873,     857,     844,     860,     866,     891,     873,     814
     838,     782,     814,     843,     810,     787,     819,     815
     842,     770,     814,     806,     788,     749,     774,     827
     778,     857,     780,     829,     803,     792,     722,     868
     791,     779,     783,     800,     822,     765,     823,     809
     845,     790,     762,     829,     768,     793,     774,     712
     798,     810,     799,     765,     794,     844,     849,     857
     753,     832,     815,     739,     777,     798,     839,     821
     768,     802,     809,     779,     782,     744,     772,     813
     746,     737,     819,     768,     758,     731,     779,     794
     806,     808,     787,     853,     764,     828,     840,     774
     838,     742,     753,     775,     790,     853,     829,     774
     780,     796,     822,     804,     736,     697,     786,     748
     835,     801,     830,     811,     838,     982,    1388,    2337
    2097,    1280,    1376,    1627,    1008,     952,     794,     767
     765,     801,     779,     800,     740,     787,     758,     746
     742,     776,     737,     746,     785,     777,     743,     744
     761,     737,     757,     691,     718,     733,     688,     751
     708,     752,     740,     746,     731,     734,     689,     756
     722,     802,     745,     769,     724,     687,     697,     717
     734,     744,     710,     701,     794,     788,     746,     745
     784,     721,     745,     703,     707,     748,     681,     766
     817,     820,    1004,     885,     818,     887,     860,     784
     715,     773,     649,     722,     736,     692,     713,     706
     736,     686,     742,     714,     723,     738,     744,     715
     689,     700,     775,     755,     729,     849,     898,    1296
    2091,    1534,    1085,    1243,    1482,    1008,     770,     712
     738,     686,     701,     738,     671,     691,     685,     732
     698,     723,     711,     759,     811,    1093,    1451,     998
     975,    1016,     999,     863,     755,     680,     706,     666
     662,     697,     661,     660,     651,     660,     687,     660
     703,     647,     661,     631,     674,     674,     674,     681
     644,     676,     670,     677,     634,     669,     672,     649
     668,     644,     640,     666,     603,     678,     641,     636
     626,     640,     648,     670,     701,     619,     667,     651
     661,     624,     658,     658,     624,     643,     628,     703
     612,     636,     669,     663,     661,     626,     623,     639
     748,     703,     679,     694,     720,     647,     624,     614
     648,     625,     645,     627,     644,     617,     651,     673
     645,     615,     648,     634,     583,     622,     631,     576
     623,     626,     664,     620,     635,     641,     621,     629
     652,     630,     611,     614,     637,     661,     598,     630
     644,     640,     561,     629,     614,     586,     591,     569
     606,     619,     657,     615,     604,     611,     657,     609
     589,     644,     617,     578,     615,     557,     584,     605
     586,     579,     582,     595,     569,     586,     632,     614
     594,     665,     596,     596,     627,     579,     617,     577
     627,     627,     640,     728,     781,     645,     604,     645
     717,     640,     621,     599,     549,     593,     579,     589
     582,     573,     564,     656,     590,     582,     563,     544
     598,     611,     627,     599,     586,     563,     608,     590
     554,     559,     545,     594,     571,     600,     576,     551
     554,     612,     605,     565,     550,     564,     576,     561
     595,     565,     571,     614,     598,     528,     560,     563
     572,     567,     580,     572,/
